2025-03-25 16-08-25 4000 Voltage 3
0.0688881,7.99833778576491,8.87051472730407
0.7005128,7.99840375427441,8.87055290437587
1.3253064,7.99915757156921,8.87035748209261
1.9482514,8.00036935745198,8.87009684132828
2.5788262,8.00175847570891,8.86990535600704
3.542836,8.00457958713204,8.86944652465127
4.1654083,8.00672872568601,8.86895182855149
4.7867119,8.00916245305213,8.86845399879227
5.4187781,8.01184076750141,8.86779181776399
6.0565977,8.01476353621819,8.86712542403948
6.6831609,8.01784280328022,8.86643140832704
7.310457,8.02108067094661,8.86570324077847
7.9363847,8.024698233945,8.86480979253021
8.5654816,8.02844493922448,8.86404291394566
9.1797663,8.03233669849252,8.86289262056001
9.7954174,8.0363337890978,8.86194390021025
10.4169615,8.04044486456472,8.86072019132927
11.0466231,8.04492920504959,8.85959294515947
11.6837466,8.04950560868171,8.85835758821499
12.3044455,8.05401656553962,8.8568599631275
12.9338921,8.05866745078978,8.85561818388087
13.5612378,8.06337271113716,8.85429426393003
14.187722,8.06818899576908,8.85288967026686
14.8189724,8.07287982904032,8.85149164219656
15.4431073,8.0775869480659,8.84998117008431
16.0733903,8.08240144827612,8.84841702304295
16.6969622,8.08726080786628,8.84699144630356
17.3103838,8.091737408552,8.84539339013678
17.9313493,8.09650080338449,8.84402391853346
18.5603898,8.10124164596559,8.84233643753091
19.185027,8.10585189829039,8.84079378708796
19.8097479,8.11043141874218,8.83911908123663
20.4359319,8.11498717684612,8.83746589739856
21.0619922,8.11945266708139,8.83591196311435
21.6898575,8.12393664697751,8.8342652631158
22.3139106,8.12827175388155,8.83259520659688
22.9379232,8.13259515342549,8.83083127151869
23.5659669,8.13693168354645,8.82921336488283
24.1923524,8.14105990884508,8.82745395220941
24.8093158,8.14501890861631,8.82554172152621
25.4366629,8.14914607153665,8.8239646225834
26.0704958,8.15329656477161,8.82226548293601
26.6967196,8.1570870574844,8.82053281001161
27.3194177,8.16080276994662,8.81879473428446
27.9405441,8.16454540079875,8.81707684220477
28.5686389,8.16820958326142,8.81530986186008
29.195092,8.17172440314368,8.81357724463188
29.8198085,8.17513506878272,8.81203571055272
30.4444583,8.17857010706696,8.8103227988088
31.0720407,8.18185387068678,8.80855387807804
31.6966354,8.18501043053407,8.80696743455006
32.3154646,8.18819935995085,8.80531887932906
32.944006,8.19113176695859,8.80362860968768
33.5683462,8.1940639630002,8.80180420169278
34.1924557,8.19688789848825,8.8001599883944
34.8170146,8.19972393659956,8.79855865260563
35.438258,8.20236569576761,8.79712020575982
36.0676615,8.20496853648253,8.79539192682623
36.7007089,8.20757095690983,8.79372569572
37.3226717,8.2099716426517,8.79226644041877
37.9498463,8.21247454584257,8.79075594665259
38.5807765,8.21466403937687,8.78889847928693
39.2083559,8.21690302168169,8.78717928167962
39.8307401,8.21898571161918,8.78570471621762
40.4566555,8.22108004092098,8.78419158246569
41.0800628,8.22307618133162,8.78274476533041
41.7072672,8.22502887792544,8.7811576452674
42.3287723,8.22674800001478,8.77967219798535
42.9595807,8.22855510132015,8.77805051021988
43.5830412,8.23023280631367,8.77644184037126
44.2214574,8.23182216263081,8.77490260738292
44.8521489,8.23345519114779,8.77342249919056
45.4768517,8.23482706210839,8.77207766479375
46.0951201,8.23622499432008,8.77043997352776
46.7194309,8.23753087479506,8.76892148656722
47.338591,8.23872369838545,8.7676019336267
47.9629848,8.23999257348015,8.76624418654167
48.5877684,8.24112398302131,8.7648786468182
49.213364,8.24222954096345,8.7633968089269
49.8413509,8.24329563934574,8.76206823088998
50.4671355,8.24416758163619,8.76055284319815
51.0913072,8.24509280870629,8.7590974372082
51.717265,8.24595726461833,8.75772696807254
52.3417418,8.24675501814606,8.75632290268831
52.9687682,8.24750858239668,8.75495701409556
53.5919586,8.24818387620833,8.75353142739797
54.2189683,8.24873197544309,8.75233426292608
54.8447391,8.24924906181381,8.75093087492029
55.468451,8.24986083175086,8.74958441705866
56.0947557,8.25026661627549,8.74806179184758
56.7226624,8.25079441835266,8.74685773732764
57.3468344,8.25127653830261,8.7455449232553
57.9745455,8.25151358440417,8.74424854865472
58.5917418,8.25189787374965,8.7427815774848
59.2144466,8.25220133324024,8.74166759264477
59.8440505,8.25245417079648,8.74027564927879
60.4699497,8.2527011451524,8.73884214759232
61.0963241,8.25281237260882,8.7376123798657
61.7128485,8.25295762627766,8.73636321487488
62.3587526,8.25300778479801,8.73514934420541
62.9837157,8.25313104036554,8.73382707909915
63.6099979,8.25316025574283,8.73241843337011
64.2365459,8.25309801178783,8.7312561136251
64.8585979,8.25309073729495,8.73001809834444
65.476114,8.25303066416505,8.72857229161579
66.1062348,8.2528990788313,8.72725556554116
66.7316259,8.25275646548158,8.72611048412579
67.3588215,8.25254902970569,8.72481752527038
67.9874223,8.25236306677795,8.7236699400815
68.613032,8.25212290145365,8.72246404321214
69.2391137,8.25185774916036,8.72117348103191
69.8640754,8.25155235910315,8.71997211778223
70.5009998,8.25130211403915,8.71885177093418
71.1278425,8.25105679949809,8.71761277864898
71.7525271,8.25060911705183,8.7164968863516
72.3799508,8.25028749815449,8.71517909049251
72.9972233,8.24988804803146,8.71415464485747
73.6257216,8.24947435285106,8.71283586211215
74.2530246,8.24900752637686,8.71176801650807
74.8762538,8.24859238319445,8.71058636317406
75.4928024,8.24812029884692,8.70939157502801
76.1186468,8.24756758318342,8.70839029095821
76.7429798,8.24699418036169,8.70721471766564
77.3701297,8.24651644526265,8.70610216347258
77.9961639,8.24595216257045,8.7049208435092
78.6219129,8.24537382166485,8.70364856895901
79.2462911,8.24489946799571,8.70265543117965
79.8684631,8.24421138499018,8.70146453463471
80.4964818,8.24358987895034,8.70021077672116
81.1204215,8.24294271001344,8.69905031950526
81.7463647,8.24233420159782,8.69790942461282
82.3725635,8.24175297557642,8.69684525169627
82.9988563,8.24103457247542,8.69557798717878
83.6238764,8.24034398481351,8.69450482160616
84.2411564,8.23973057263779,8.69334817254004
84.8723589,8.23893808358701,8.69237335493156
85.4882535,8.23815764344411,8.69139174854395
86.1126574,8.23748661718628,8.69007446011457
86.7400731,8.23672387767582,8.68893383540797
87.3539158,8.23591902340463,8.68784213905252
87.981194,8.23512094209578,8.68658365615526
88.6054477,8.23441807560246,8.68552302097304
89.2312234,8.23364431816302,8.6844762292478
89.8557356,8.23293007566948,8.68331170613801
90.4808299,8.23205587118181,8.68224956557089
91.1109176,8.23122284283952,8.68110009551249
91.7371409,8.23044094722264,8.67983214661716
92.3638757,8.22954997643835,8.67878295490823
92.9875256,8.22884015822167,8.67768719634702
93.6149366,8.22795617286606,8.67639783152308
94.2394279,8.22707984329858,8.67550622460853
94.8664173,8.22626729405525,8.67435504371487
95.4950969,8.2254022869252,8.67312838045944
96.1178394,8.22460603320704,8.6721058988508
96.7452356,8.22369001763168,8.67102949475787
97.3722742,8.2229090036983,8.66992181973574
97.9945851,8.22203646937258,8.6688401419333
98.6230792,8.22116971328714,8.66766861971728
99.2511063,8.22029883658032,8.66654669631211
99.8718212,8.21942184854803,8.66551311132326
100.5015709,8.21849107937227,8.66438627808514
101.127065,8.21767694826379,8.66327938894592
101.7541874,8.21674216163484,8.66223321807276
102.3774572,8.21589601352641,8.66088676729546
103.0104995,8.21500575231792,8.65985173759008
103.632928,8.21399239967116,8.65873090980618
104.260945,8.21316200072053,8.657673362253
104.8847934,8.21229071335666,8.65648082202008
105.5117347,8.2113907197812,8.65530888403494
106.139106,8.21041969971534,8.65406812188097
106.7688771,8.20954660071953,8.65302686030194
107.4075838,8.20861933720146,8.65204741629635
108.0359305,8.20771845612903,8.65105682900635
108.6632622,8.2067720218112,8.64987455602313
109.2870758,8.20594063660708,8.64894104287758
109.9038732,8.20498486456316,8.64764652354463
110.5319638,8.20415349552554,8.64674261156856
111.1521512,8.20330325969559,8.64556777237679
111.7789746,8.20236048785273,8.64437487485259
112.4042544,8.20148165711728,8.643245399896
113.0399125,8.20061047160363,8.64224041210907
113.6631156,8.19971826131136,8.64115633800508
114.2888183,8.19884253108861,8.6398505979237
114.9059754,8.19798503385154,8.63878758611673
115.5392706,8.1971297380998,8.63775154326049
116.1701553,8.19622048555609,8.6367001846417
116.7944898,8.19536052755897,8.63544173660981
117.4202381,8.19442421533048,8.6345133798213
118.0445944,8.19357527263136,8.6333236510394
118.6610464,8.19267846491941,8.63227784584394
119.2873487,8.19175374194187,8.63113362729223
119.9048546,8.19093199049892,8.6300365230532
120.5890711,8.18987571167337,8.62893200641038
121.2162169,8.18898257935984,8.62793060508047
121.8402137,8.18817597026814,8.62681036455842
122.4631051,8.18733220586059,8.62585861876031
123.0971872,8.18645889185287,8.62491426955252
123.7214542,8.18557222735854,8.62403038704831
124.3438939,8.18466543235773,8.62317062772189
124.967098,8.183861570657,8.62255388995799
125.5944512,8.18300471909566,8.62193711141101
126.2221955,8.18222366415746,8.62118548116636
126.8434066,8.18143802200172,8.62082640810203
127.4724411,8.18063744716539,8.62048741891538
128.0969163,8.17988413193829,8.62008611284547
128.7240609,8.1789308970813,8.6200601800018
129.3408643,8.17820938204388,8.6197892017184
129.9661084,8.17747930210441,8.61975412717861
130.5896347,8.17666848425294,8.61967967614425
131.2175705,8.17585495288064,8.61960086351274
131.843472,8.17510339658474,8.61974307303484
132.469277,8.17432779409472,8.62002480622305
133.0950872,8.17349986758721,8.62011186646306
133.7311521,8.17270341016478,8.62028562955518
134.3672191,8.17196961779176,8.62071914755074
134.9930909,8.17112099050717,8.62102891997796
135.6164984,8.17033403427065,8.621326208011
136.2432043,8.16953092701179,8.62185643739181
136.8650432,8.16867591954234,8.62235381282982
137.4904367,8.16786347452947,8.62288263511952
138.1172974,8.16703686858677,8.62342485828857
138.7418805,8.16627069264104,8.62400845334421
139.3685107,8.16550904360366,8.62452136166526
139.994871,8.16472219266754,8.62532762604743
140.6235805,8.16392778049582,8.62622190620962
141.2498,8.16311850792948,8.62697515990117
141.8755009,8.16235411813649,8.6278253986755
142.4988303,8.16158864821073,8.62848264887432
143.1289506,8.16081894501458,8.62950948478881
143.7532936,8.16009499222594,8.63053188947995
144.3852516,8.15939652364874,8.63141330850107
145.0222789,8.15856402227183,8.63234217943531
145.6498306,8.15774171470083,8.63315970038399
146.2709036,8.15702844123073,8.63436526529417
146.8966292,8.15615172851038,8.63520068859963
147.5203251,8.15548591505886,8.63606634609123
148.1480086,8.1546874353622,8.63719254612344
148.7717787,8.15395138902096,8.63822694529991
149.4020214,8.15316096783053,8.63928233146446
150.024166,8.15246151711506,8.64055447876077
150.6521287,8.15169461867982,8.6416159691762
151.2730866,8.15104284539499,8.64278961972895
151.9028188,8.15029041731557,8.64377411547548
152.5272896,8.14964697733177,8.64493275605487
153.1519454,8.14889792854407,8.64612359268872
153.7765565,8.14822914841787,8.64721804731577
154.4024204,8.14749573374761,8.6483488829604
155.0338897,8.1468504585946,8.6497810232281
155.6636532,8.14605180059292,8.6508460542392
156.2849925,8.14551679295717,8.6520476556902
156.9137147,8.14475774750633,8.65344839803861
157.5328773,8.1441803579132,8.65455420610557
158.1578617,8.14347766426986,8.65588496757996
158.7829992,8.14292942412186,8.65707196494773
159.4040558,8.14225524424574,8.658292139041
160.0286705,8.14150274043263,8.65951113007598
160.6544427,8.14086185997181,8.66066750681928
161.2791555,8.14008671741287,8.66208477892356
161.8985925,8.13941455889063,8.6631439363541
162.5274624,8.13871763331799,8.6643761574739
163.1535856,8.13797698711625,8.66575961453124
163.7769251,8.13729970905253,8.6670678210924
164.4041339,8.13661061456361,8.66824439945359
165.0287808,8.13592346855313,8.66978877824748
165.65422,8.13524054524783,8.67082042697367
166.2771952,8.13450825126297,8.67207666360453
166.9104345,8.13388888120036,8.67341757481403
167.5406294,8.13324049065066,8.67477936659159
168.1588493,8.13255474401194,8.67596328804289
168.7867087,8.13196295669066,8.67742244943868
169.4139867,8.13134908853686,8.67870960283569
170.0391785,8.13071582364541,8.67990322539137
170.6638515,8.13006398012032,8.68102062160337
171.2951413,8.1294274329949,8.68243489665964
171.9191067,8.12873785357228,8.68361321565067
172.5457209,8.12811895484939,8.68487091283227
173.1694569,8.12752135343816,8.68615548659684
173.7837055,8.12692790889449,8.68755531479851
174.4015829,8.12630469461602,8.68873135626372
175.0267577,8.12569694690515,8.69017669558409
175.6598436,8.12516907370619,8.69160426894184
176.2790117,8.12457738975482,8.69274132727432
176.9104162,8.12394608922992,8.69394843905801
177.530699,8.12338853774517,8.6952838550551
178.152921,8.12292949915621,8.69644247507433
178.7802159,8.1223460994963,8.69759870260422
179.4046193,8.12181441061246,8.69897593350992
180.0287656,8.12121542531836,8.70026536977448
180.6458467,8.12072572542427,8.7014917728514
181.2714522,8.1201185562774,8.70274117077709
181.8943292,8.11962579495965,8.70403258900376
182.5214323,8.11893463272827,8.7052822650712
183.1313089,8.11844073538937,8.70645286433872
183.7518957,8.1178574675362,8.70753471068457
184.3765949,8.11732170361491,8.70872272637717
185.0020538,8.11673485622627,8.70985757356269
185.6285363,8.11623961526695,8.71108258187731
186.2563737,8.11562739798017,8.71232321229907
186.8874912,8.11511243461262,8.71350148598698
187.5161751,8.1144503251803,8.71471609030628
188.1408992,8.11394890775997,8.71601344233683
188.7575711,8.11343107517043,8.71726182278707
189.3886523,8.11284475048208,8.71820980798916
190.0140499,8.11228512218618,8.71934627233036
190.6399335,8.1117067532699,8.7205187126366
191.2701388,8.11122765590778,8.72181079422216
191.8872308,8.11076103492311,8.72264079705057
192.5165205,8.11021690031738,8.72401518178162
193.1440724,8.10973772240199,8.72514260423628
193.7689184,8.10919955653974,8.72624329868973
194.4002065,8.10863723538646,8.72735684909808
195.0237483,8.10814691365265,8.72835943968286
195.6483055,8.1076562545965,8.72953090422423
196.2737163,8.10713742130931,8.73061117054405
196.8955481,8.10649590143746,8.73189290557818
197.5205672,8.10610224118687,8.73282920305944
198.1460553,8.10552801202348,8.73390285624658
198.7693679,8.10516523306597,8.73517218098045
199.400906,8.10459685386939,8.73626104450003
200.0261889,8.10412311021383,8.73724238237086
200.6507797,8.10359639227255,8.73819521787475
201.2720678,8.10317000901669,8.73921656249829
201.9000148,8.10275498846944,8.74033540077264
202.5176291,8.10213695696935,8.74132054457771
203.1420217,8.10170193022047,8.74238906061514
203.7749071,8.101201882471,8.74324185822054
204.4001386,8.10071378187335,8.74429394229871
205.026199,8.10028909055279,8.74541733237804
205.6519447,8.099859518263,8.74625504562509
206.2677386,8.09937482703695,8.74720897007122
206.8938089,8.09893060505235,8.74825182052746
207.5194651,8.098505369754,8.74926952685096
208.1440257,8.09798107094952,8.75028752528216
208.7716012,8.0975833302408,8.75126762377118
209.3933593,8.09718536466995,8.75225835609219
210.0211364,8.09670848005646,8.75315512162089
210.6432888,8.09638561594256,8.75405529574898
211.2707925,8.09582988521147,8.75504135299705
211.8953212,8.09543317701845,8.75610139443146
212.5259889,8.09494259916414,8.75691091607808
213.1476657,8.09444027722724,8.75789013431539
213.7713441,8.09403137525143,8.75883348016263
214.4009165,8.09352669031486,8.7597157973845
215.023422,8.09316407232988,8.76059261743078
215.641969,8.09268489832866,8.7614952910322
216.2670091,8.09230349945175,8.76249567475854
216.8832707,8.09188835678842,8.76340950717929
217.5032329,8.0914821841134,8.76409781260464
218.1274867,8.09097407263106,8.76499167589592
218.7549854,8.09058770246932,8.76586890666365
219.3809118,8.0901574090069,8.76653460440706
220.0053014,8.08967755114939,8.76739264065968
220.6313256,8.08919625029727,8.76834389685438
221.2591478,8.08874428497369,8.76914337692802
221.8851496,8.08815234698089,8.77013083679068
222.5108158,8.08779750682499,8.77081262958372
223.132574,8.08730531405756,8.77169252262199
223.7606552,8.08686345635753,8.77239526061363
224.3899746,8.0863645965785,8.77322356207275
225.0151296,8.08600420363844,8.77400589484207
225.6430124,8.085607168142,8.7748157764989
226.2676179,8.08514876926798,8.77568747442454
226.8812149,8.08470550529496,8.77644653755769
227.5047459,8.08423758750202,8.77709765047911
228.1281702,8.08380609377124,8.77774300295731
228.7543071,8.08345505395619,8.77865036165638
229.3746653,8.08309802927288,8.77929522190786
230.0028562,8.08262386760845,8.78004165223919
230.6276312,8.08226743950474,8.78080431305459
231.2607177,8.08194864883621,8.78159025378084
231.8829245,8.08160840171735,8.78220581234495
232.514377,8.08121546717192,8.78306933681019
233.1375902,8.08085103838266,8.78384620919772
233.7651344,8.08058874219721,8.78457503627401
234.3891091,8.080146510533,8.78521900209502
235.0203328,8.07986404341161,8.78582298353829
235.6506425,8.07949812739226,8.78657495825243
236.2615747,8.07912628639477,8.78735449669287
236.8711934,8.07867530622912,8.78795390264786
237.4800345,8.07826515869521,8.78864069874004
238.0910752,8.07789857433757,8.78935312834532
238.700735,8.07757805117568,8.78991221916895
239.3176657,8.07716862409052,8.79047940069071
239.9327473,8.07686759212161,8.79122178664707
240.5503907,8.0764746932489,8.79190266766655
241.174883,8.07617309034741,8.79255126774552
241.8000596,8.07583073270677,8.79308688181122
242.4302897,8.07555355991337,8.79368223957846
243.0528555,8.07515580307526,8.79431540664964
243.6766145,8.0749211413258,8.79500657902541
244.2998147,8.07453432760381,8.79552809325292
244.9273449,8.07422205646002,8.79622774643949
245.5513653,8.07390060429174,8.7969987976195
246.1764029,8.07361758650713,8.79760759387653
246.8029308,8.07328771425555,8.79813809776458
247.4306155,8.07294017412973,8.79873276102474
248.0544853,8.07267356416608,8.79931297253418
248.6773405,8.07230190910795,8.80006521055786
249.3050737,8.07201193811831,8.80061911254234
249.9286779,8.07169552111946,8.80120136817561
250.552022,8.07139358389824,8.80167528858617
251.1771947,8.07111990276088,8.80229960230874
251.8031556,8.07079518742722,8.80295909014283
252.4204182,8.07052209582913,8.80341990630292
253.0513613,8.07015797954253,8.80386607950622
253.6784832,8.06988280413638,8.80448153616922
254.3032946,8.069522070884,8.80504611330474
254.9321459,8.06922150359805,8.80553514084795
255.5573782,8.06895767541862,8.80606253681332
256.181066,8.06859289034781,8.80648983115996
256.8079092,8.06823363359171,8.80714951666537
257.4327497,8.06798004792103,8.80768606235035
258.0581131,8.06762242962868,8.80810036309116
258.6831515,8.06734043125415,8.80870412715117
259.3010872,8.06698968247732,8.80922165362171
259.930555,8.06662208581279,8.8094689611805
260.5584017,8.06629134180998,8.81016294654937
261.18315,8.06587680083624,8.81066989370946
261.8048491,8.06561168047386,8.81108787533723
262.4329836,8.06523951836403,8.81174222192653
263.0573139,8.06493053148309,8.81219135476761
263.6730706,8.06473550669337,8.8128877265527
264.2998425,8.06435231994353,8.81316753688587
264.9277321,8.06422587110168,8.8135430969735
265.5554043,8.0639656540068,8.81422581981624
266.1792684,8.06364994633246,8.81460188233144
266.7962694,8.06347172741298,8.81508884938444
267.4255036,8.06321262424787,8.81534708969857
268.0513498,8.06300082343301,8.81596283727555
268.667946,8.06279855431201,8.8163979447426
269.2946498,8.06251482319285,8.81683831131608
