2025-03-25 16-50-26 5000 Voltage 3
0.0586294,8.02313452237729,13.6811118903584
0.6853714,8.02061013412002,13.6809748525808
1.2994907,8.00663144074524,13.6804797336279
1.9238456,7.9841007898312,13.6793573238139
2.5570253,7.95531634187966,13.6774437043817
3.1938405,7.91991750909914,13.6744325166753
3.8330399,7.87926836278825,13.6703826625414
4.4621558,7.83508956638015,13.6658053322527
5.0860413,7.78631786350234,13.6599145472075
5.7032638,7.7339323505284,13.6534553693036
6.3314326,7.67684505091613,13.6458393072101
6.9525755,7.61584834424668,13.6373980891413
7.5784138,7.55095877667779,13.6281443181867
8.2033023,7.48237891322265,13.6178617441203
8.8299496,7.41043580776248,13.6066647288794
9.4528747,7.33533856733221,13.5948397318717
10.0681686,7.2577939905846,13.5824745651591
10.6944339,7.17666816312683,13.5690126421188
11.3195714,7.09192738335876,13.5549694500465
11.9471226,7.00463976401598,13.5398241316517
12.5640037,6.91626652088004,13.5244346484971
13.1893684,6.82497742990414,13.5079552208736
13.8197064,6.73590278354635,13.490686340605
14.4433175,6.64787003019453,13.4728389166864
15.0674552,6.56095042941992,13.4543961384599
15.6921489,6.47477843049912,13.4351988451508
16.3145745,6.38943555590745,13.4154179905448
16.9412316,6.30443114102006,13.3945561022083
17.5640927,6.22048422311578,13.3735928592502
18.1913671,6.1364861296836,13.3516514756118
18.8127795,6.05502334468227,13.3292316862421
19.4378536,5.97341875506309,13.306237833254
20.0604803,5.89296523687495,13.2823121606476
20.6860139,5.81346830962661,13.2578788332357
21.3121859,5.73526311360704,13.2325759844352
21.9378447,5.6580947521562,13.2067947009491
22.5763855,5.58142532648607,13.179940845477
23.2131548,5.50470994949104,13.1523969049902
23.8371594,5.43098544156504,13.1248221228806
24.4706106,5.35866986236011,13.0964473979871
25.1001601,5.28657425803385,13.0678093987835
25.7275571,5.21701143852219,13.0385638217855
26.3582509,5.14843747718279,13.0084381358902
26.9827377,5.08092714522166,12.9781499580429
27.6112072,5.01502271623273,12.947414932983
28.2345619,4.95117590441462,12.9163276221274
28.8580005,4.88821475285122,12.8847298582425
29.4828931,4.82657517356144,12.8524004506415
30.1064606,4.76648833244556,12.8200220278438
30.7237207,4.70823335606925,12.7874203647882
31.3502883,4.65098073280176,12.7542168258069
31.9795695,4.59415004435134,12.7201710519488
32.6036618,4.53873919581815,12.6860064899608
33.2279388,4.48487707860043,12.651402587604
33.8530691,4.43222843136503,12.6166416348479
34.4843313,4.38080722894146,12.5810972782449
35.1124777,4.33024708139753,12.5455340141252
35.7374547,4.2814381315857,12.5096706919812
36.3604339,4.2338686159286,12.4735797486617
36.9823472,4.1878199191777,12.4372413444353
37.6062502,4.14240158204788,12.400861386571
38.2294981,4.0984732813652,12.3639645896624
38.8461222,4.05619064233374,12.3271102126572
39.4830268,4.01352229843656,12.2888452472762
40.1153597,3.97222022795766,12.2509798777143
40.7402307,3.93254443171718,12.2135016388513
41.3635739,3.89402881104688,12.1754891759441
41.9857404,3.8567837614303,12.1375042527028
42.6127622,3.82011988583816,12.0990979039489
43.2379877,3.78450138000254,12.0606732462027
43.8658845,3.74984376473288,12.0219896814137
44.4887937,3.71643127806519,11.983023826853
45.1136278,3.68390710771819,11.9441870803764
45.7390184,3.65228396751437,11.9053708440741
46.3612729,3.62165608959754,11.86630474933
46.9977382,3.59141896844719,11.8266096869775
47.6215556,3.56250181626161,11.7873918835419
48.2465072,3.53431584843359,11.7477883808425
48.8725196,3.50696193064966,11.708569337088
49.500412,3.48039426192537,11.6688016310515
50.1238088,3.45469526406552,11.6294199919185
50.7409069,3.43010497928602,11.590366979852
51.3650507,3.40589437953485,11.5511273865437
51.9902674,3.38250907210918,11.5118300724152
52.6154373,3.35970026804481,11.4724025479729
53.2316355,3.33797105600856,11.4332265935146
53.8632898,3.31646298023706,11.3937128154644
54.4907244,3.29573350998843,11.3540477615319
55.1147185,3.27553278013468,11.3147621394977
55.7426048,3.25617793809648,11.2754969795705
56.3690689,3.23761997331515,11.2358452086595
56.9906984,3.21938357124388,11.1965537529583
57.6132108,3.20171182336848,11.1570630573651
58.2540957,3.18447826505447,11.1168321518215
58.8904665,3.16751237995119,11.0770557904453
59.5183146,3.15165567725463,11.037983264971
60.1375908,3.13629273536801,10.9993078945176
60.765463,3.12140360192969,10.9603307632224
61.3807101,3.10731149121384,10.9217538999342
62.0053627,3.09329201846638,10.8833696913406
62.6315641,3.08017852730237,10.8447989293259
63.2693004,3.06679480940484,10.8052470067321
63.9003735,3.05391905448693,10.7665208539575
64.5261213,3.04181076575986,10.7279663525515
65.1496194,3.0301904429173,10.6900305394606
65.7755658,3.01883124970967,10.651921770251
66.3933615,3.00799418057212,10.6139368855418
67.0198977,2.99752505214804,10.5762579555055
67.6457962,2.98731996375353,10.5384429078986
68.2701412,2.97755039943043,10.5004370251013
68.8863541,2.96810521881466,10.4639246070732
69.5054381,2.95901704842679,10.4263939410158
70.1323868,2.95018277171937,10.3893130447554
70.7557421,2.94156637263934,10.3522764955971
71.3777279,2.93321111131252,10.3152346519783
72.0091867,2.92526360741953,10.2780213790115
72.633161,2.9175298558124,10.2415330613977
73.2572631,2.91012495119673,10.2047695302889
73.8980227,2.90259580040913,10.1675760590099
74.5206165,2.89562149475378,10.131783502174
75.1417727,2.88894548063206,10.0953514053058
75.7809778,2.88223361652722,10.0584800450047
76.4115852,2.87588351317536,10.0225541480922
77.0425776,2.86964617916637,9.98667717219253
77.6670808,2.86373234584777,9.95069662980715
78.2912884,2.85810097275305,9.9154758321816
78.9148021,2.8525561450287,9.8802636995086
79.5394778,2.8473050557479,9.84496572413132
80.1636185,2.84202945924396,9.81050422492004
80.7884953,2.83700472143928,9.775495436188
81.4155305,2.83215011571109,9.74055680248174
82.0310449,2.8275964741202,9.70675530427736
82.6567105,2.82306611462682,9.67208617578068
83.2830824,2.81859861194513,9.63791076559279
83.9075368,2.81422253933284,9.60395541079793
84.5332439,2.81011747423682,9.57029951080822
85.1622464,2.80602442103186,9.53643551069562
85.7874447,2.80214503216397,9.50281903285451
86.4095629,2.79830998066494,9.46958154437463
87.0238134,2.79463733064867,9.43665943260098
87.6421712,2.79115290070474,9.40374514161122
88.2656144,2.78764933631845,9.37098604929433
88.8934911,2.78428317162165,9.33810211329309
89.5172951,2.78093775152235,9.30590002386921
90.1438524,2.77783280096084,9.27344112132421
90.7658801,2.77473373260664,9.24096467037477
91.3880056,2.77176627741803,9.20869654239763
92.0125801,2.76887185281819,9.17685933568561
92.6375854,2.76595420837191,9.14499889436203
93.2607004,2.76321238513283,9.11355436928649
93.8909693,2.7606087030886,9.08173475064536
94.5142001,2.75798817258183,9.05037075380155
95.1413749,2.75552686594184,9.01939345273246
95.7649497,2.75311643833286,8.9883616682405
96.3884156,2.75080840695512,8.95757295298493
97.012366,2.74866350551765,8.92698516635972
97.6403643,2.74651355695001,8.89627612042799
98.2666965,2.74446533208209,8.86580552622448
98.8917315,2.74240924246327,8.83546109274752
99.5172913,2.74045203752122,8.80538093517128
100.1433376,2.73853912000876,8.77532129165871
100.7654942,2.7367798226362,8.74559122174755
101.3941276,2.73500239654256,8.7158907819769
102.01836,2.73339016716871,8.68645565995766
102.6432457,2.73172503382379,8.65713518085802
103.2726525,2.73024187024447,8.6277803872402
103.8984579,2.7287688056292,8.59871198772881
104.5186839,2.72735398320788,8.56989693632427
105.1502601,2.72617509562326,8.54138862510464
105.7761807,2.72484423026758,8.5124534824194
106.4066324,2.72371021649128,8.48374945664688
107.0391653,2.72259641017056,8.45533993656973
107.6660927,2.72148586216079,8.42740708771783
108.2929256,2.72042856316568,8.39917545649118
108.917629,2.7194496540477,8.37141184837972
109.5396469,2.71848250394688,8.34423201914936
110.1681559,2.71757208326376,8.31637700886288
110.784481,2.7168314751029,8.28974700447097
111.4013679,2.71600215547506,8.2626252438347
112.0362826,2.71520165197033,8.23561053680118
112.6625077,2.71452760689063,8.20851526348138
113.2923898,2.7138689723267,8.18154008358105
113.9180169,2.7133174003836,8.15495211282465
114.5430307,2.71270651707718,8.12861204347266
115.1585946,2.71221847172495,8.1030514641035
115.7855938,2.71173411877642,8.0768279937032
116.4091086,2.71132000754697,8.05091193506537
117.037282,2.71086737730527,8.02500421714647
117.658954,2.71052661480015,7.99940593501464
118.2794298,2.71027146805387,7.97412728559046
118.9076886,2.71003436859785,7.94870450741193
119.5338621,2.70980170540092,7.92348018910995
120.1637956,2.70953051977445,7.89792536978662
120.795442,2.70928740025056,7.87269665268698
121.4237404,2.70919731735468,7.84794895948964
122.044914,2.70906897655478,7.82333172161812
122.6678298,2.7088847347455,7.79901020594871
123.2900999,2.70887759740575,7.77485508900498
123.920229,2.70888078925923,7.75051186657641
124.5465011,2.70888389245061,7.72682322361241
125.1720081,2.70884598921867,7.70319718011459
125.798517,2.70902105400897,7.67988962193015
126.4230651,2.70898904660258,7.65673665272041
127.0480776,2.70913396698772,7.63372986456467
127.6739038,2.70930544347964,7.61114208104549
128.2975686,2.70944048007451,7.58869562185972
128.9237242,2.70964339140574,7.56605389766551
129.5483936,2.70984116218582,7.54405536810154
130.1734511,2.71006309702282,7.52214122170935
130.800712,2.71024797078232,7.50049142808547
131.4271079,2.71045026992862,7.47893262848673
132.0504012,2.71073006959644,7.45774514487682
132.6759156,2.71097817296994,7.43657951242405
133.2999631,2.7113043122857,7.41543085285731
133.9313623,2.71173261128899,7.39458484223335
134.5536805,2.71196631758588,7.37410031187636
135.1704232,2.71231495359069,7.35408306591598
135.7956759,2.71271791248747,7.33372039599604
136.4278201,2.71300701231013,7.31322620310921
137.0537399,2.71349853630529,7.29317760363518
137.6758524,2.71391007812739,7.27344328840768
138.3049226,2.71428163065375,7.25376030572483
138.9287454,2.71472529477378,7.23426915838954
139.5552888,2.71516249462754,7.21482484925101
140.1785778,2.71556826257189,7.19587770132163
140.8055085,2.71611972155696,7.17678405401812
141.4269513,2.71652825929018,7.15783502081178
142.0535407,2.7170351295309,7.13917370900195
142.6756304,2.71762330908572,7.12092950663848
143.3091594,2.71818609247131,7.10228992759551
143.9353462,2.71845833136042,7.08379484074352
144.5584346,2.7189658733346,7.06563582713015
145.1875635,2.71948864268021,7.04748865199208
145.8106103,2.72009650296145,7.02987423056428
146.433441,2.72049625340443,7.0123987624128
147.0624228,2.72116673672974,6.9945096255882
147.684959,2.72162337961384,6.9771811981009
148.3083697,2.72226670816443,6.95983604802387
148.9364189,2.7228227508464,6.94271469133386
149.5613664,2.7232856883592,6.92546890689085
150.1794856,2.72387255028651,6.90854793039831
150.813401,2.72449412523215,6.89167802571077
151.4402301,2.72505804104561,6.87495126105059
152.0671244,2.72560724258136,6.85832289620098
152.688808,2.72619532885797,6.84188778443955
153.320732,2.7267572089468,6.8253459013069
153.9456474,2.72741481981064,6.80895756608839
154.5579195,2.72808261509971,6.79323950414621
155.181036,2.72874373259688,6.77728634920684
155.8057129,2.72940380768762,6.76155587556807
156.4243208,2.7300241852731,6.74578807931078
157.0543785,2.73068900865674,6.73014826754342
157.677805,2.73129917515833,6.71463685016792
158.3027029,2.7319353701993,6.69914823034802
158.9196461,2.7325608004856,6.68377235817507
159.5417254,2.73319867950076,6.66867746030513
160.1734948,2.73388900280814,6.65318867560803
160.7986546,2.73450970233825,6.6382183579641
161.4185172,2.73517228330064,6.62349763050356
162.0474755,2.7358436325317,6.60856267260571
162.6757989,2.73650945578263,6.59375500045069
163.3018151,2.73719568000852,6.57912639593888
163.9254244,2.73778340961328,6.5646709204481
164.5408748,2.73843304970985,6.55030101949637
165.1666045,2.73913284030309,6.53638482711865
165.7898354,2.73977040401737,6.52207118409783
166.4189714,2.74047645972778,6.50793032766849
167.042162,2.74112126157774,6.49410801202828
167.6743082,2.74180791644632,6.47981492989742
168.2898206,2.74250472095841,6.46631096315183
168.916088,2.74318365330875,6.45263793317578
169.532464,2.74382863454314,6.43914471760329
170.1532031,2.74449522220849,6.42549288163707
170.7814955,2.74517240365724,6.41192403160168
171.4084772,2.74583388548858,6.39862960702593
172.0344873,2.74659555265669,6.38536149135244
172.6589331,2.74720871037168,6.37223109691417
173.2846075,2.74793271820927,6.35891630555705
173.9092433,2.74858976364153,6.34593293317253
174.5231831,2.74926233553536,6.33313018233793
175.150495,2.75000681202287,6.32038967597927
175.7772997,2.75067494617245,6.30755310557294
176.4044873,2.75139068707678,6.29464212381492
177.0288636,2.75213640095973,6.28234621535679
177.6534265,2.75272925163605,6.2696859508565
178.2855842,2.75338099520193,6.25709371923407
178.9158579,2.75405453409686,6.24455779036117
179.5443317,2.75468836999413,6.23229013804446
180.1665337,2.75542603475309,6.22010641876044
180.7912177,2.75609231248798,6.20812923478936
181.4204532,2.75681154321523,6.19587531776093
182.0458548,2.75745658054158,6.18408201707567
182.6673943,2.75824168505825,6.17222052665017
183.2923919,2.75883547908038,6.16059350404089
183.9142704,2.75948005074484,6.14872886553436
184.5384897,2.76018287264952,6.13702348884064
185.1656962,2.76085433774185,6.12536654495746
185.7906266,2.76158854886221,6.1139032284219
186.4145896,2.76225672883848,6.10241715019753
187.0381144,2.76296938779213,6.09110630110806
187.6551335,2.76355456934634,6.07983623230776
188.2908794,2.76429928667808,6.06866427724289
188.9135492,2.76500899780517,6.05745443600579
189.5311746,2.76556414055765,6.04654607000964
190.1571696,2.76619964434752,6.03559548114239
190.7813291,2.76689012763657,6.02474636992206
191.4052023,2.76757663366451,6.0141134231713
192.0292028,2.76824319797464,6.00330041819207
192.6551481,2.7689124534995,5.99246124737273
193.2797115,2.76956638972035,5.9817178348908
193.9044054,2.77026619941448,5.97135943524287
194.5300259,2.77094508711381,5.9607587690049
195.1542526,2.77159815827223,5.95043251570628
195.7854525,2.77227731524827,5.93994874666205
196.4098688,2.77305577330957,5.92965950836787
197.0264086,2.77363761361499,5.91942105912608
197.6513125,2.77428957494395,5.90926754877318
198.2748129,2.7749199393528,5.89946690188603
198.9060527,2.77559147292836,5.8891212584171
199.5346329,2.77630293434472,5.87898927928328
200.1657792,2.77693269724117,5.86886980254812
200.7993211,2.77756239172223,5.85899758108577
201.4313495,2.77824767607539,5.84918163447896
202.0557647,2.77890811338082,5.83950862662193
202.6838506,2.77950797235814,5.82958924778625
203.3085752,2.78015808536212,5.8200975434671
203.9393044,2.78085899143916,5.81042334535766
204.5635744,2.78150937247508,5.80097897816662
205.1882923,2.78215172091945,5.79154888578
205.8117125,2.7827452725673,5.78224977489262
206.4298069,2.78338107573355,5.77297953668068
207.0618053,2.78401084725804,5.76353985739704
207.6853248,2.78466498406313,5.75429394685094
208.3039091,2.78534963065968,5.74529795653942
208.9292032,2.7859227621463,5.73644464497005
209.5674908,2.78651869986558,5.72714596531041
210.1951709,2.78720977744394,5.71816244467014
210.8105958,2.78769478393898,5.7093940163656
211.4367877,2.78834081051925,5.70020786611164
212.0645723,2.78893339523186,5.6913197576023
212.6919767,2.7895618789877,5.68266207910341
213.3193535,2.79014871379716,5.67399220202871
213.9440429,2.79076134350975,5.66514156095961
214.5671884,2.7914002603183,5.6567099987951
215.1920614,2.79197593130999,5.64807356200903
215.8203799,2.79252949100988,5.63944461640853
216.4518679,2.79316267806268,5.63086686992059
217.0837366,2.79366702523937,5.62250929965556
217.713518,2.79430194169887,5.61415368928951
218.337737,2.79482956297677,5.60583656747735
218.9607979,2.7955326054637,5.59772574493899
219.5887056,2.79619929045941,5.58953342425385
220.2159037,2.79666274607143,5.58126267849494
220.8401178,2.79735766088594,5.57316336688707
221.4659059,2.79798347972819,5.56501587994111
222.0889905,2.79851115716194,5.557280246024
222.7132247,2.79918475962324,5.54917601665353
223.3368055,2.79976253365805,5.54143842977965
223.9639367,2.80032219637339,5.533404111439
224.5879568,2.80091158575405,5.52567487313069
225.2121993,2.80143836329554,5.51782934556349
225.8383986,2.80202146124476,5.51017719990857
226.4602128,2.80258225862321,5.50243977885719
227.0876834,2.80312253542617,5.49496041008722
227.7008977,2.80361765395353,5.48738677477826
228.314824,2.80418945726444,5.48007204835381
228.9377321,2.80473989243036,5.47274220553655
229.5657032,2.80528254643476,5.46528217290111
230.1814301,2.80586816653099,5.45783826035759
230.8043071,2.8063939655108,5.45072303758624
231.4294221,2.80689651993206,5.44348112473408
232.0503337,2.80745558756081,5.43635064602268
232.6718395,2.80794760899155,5.42900427767897
233.2995391,2.80847694038607,5.42203033757105
233.9239116,2.80900664279817,5.4149877751113
234.5416554,2.80950382855272,5.40788987132695
235.165656,2.8100515632094,5.40099614058518
235.7916948,2.81061887780022,5.39390856366903
236.4177747,2.81112408258591,5.38703450120914
237.0410079,2.8116629050178,5.38017248082703
237.6676823,2.81223329771202,5.37332675049631
238.2949792,2.81276796146224,5.36655914447237
238.9205946,2.81322459457428,5.35965971761065
239.5458691,2.81377871966147,5.35302210280677
240.1718418,2.81428962353965,5.34633431064017
240.7949544,2.81489281241101,5.33970620676493
241.4112629,2.8153917100326,5.33324093278669
242.0356998,2.81597210930661,5.32672546948122
242.6528095,2.81647972780404,5.32062237874403
243.2810471,2.81698419443619,5.31400506564643
243.9058624,2.81751163383961,5.30757038589395
244.534499,2.81800368881861,5.30104245781207
245.1572794,2.81859936987747,5.29499983725409
245.7810555,2.8191635473061,5.288793483846
246.4059586,2.8208892639675,5.28252093629533
247.0287568,2.82017370418664,5.27630727144414
247.6452359,2.82066645128866,5.27013850945716
248.2718235,2.82115894343021,5.26429258413928
248.8975659,2.82161662235936,5.25810415035512
249.5234319,2.82224973898689,5.25197230941977
250.1487362,2.82269214813419,5.24606900658688
250.7653798,2.82313487958573,5.24020224335753
251.3897956,2.82365490579642,5.23414635147159
252.0124482,2.82416357375167,5.22820697364057
252.6390447,2.82473678894238,5.22224699394639
253.2618329,2.82514981948073,5.21625742342201
253.8900832,2.82569594674642,5.21054384594306
254.5145,2.82618941467555,5.20486713889135
255.1418297,2.82663454570186,5.19892661108595
255.7572784,2.8272148817372,5.19314555347174
256.3821682,2.82765187366486,5.18760749397174
257.0045978,2.8281116246524,5.18188955219511
257.632562,2.82855590786477,5.17621807408916
258.2572666,2.82902741237846,5.17065879176753
258.8855192,2.82945824464263,5.1652830383268
259.5127521,2.82997505084466,5.15973734775138
260.137963,2.83039283308463,5.15417882903995
260.7677611,2.83082530187599,5.14872284354591
261.3893318,2.83131725025149,5.14364322163711
262.0170618,2.83179564827625,5.13812721559853
262.63937,2.83227254121846,5.1327594421183
263.2627655,2.83270674756534,5.12744599615061
263.8892825,2.83314198988998,5.1223210685213
264.5161103,2.83357590346225,5.11692533300131
265.1470583,2.83404119457994,5.11158990488012
265.7856996,2.83449511855753,5.10619687453506
266.4105085,2.83498046714904,5.10116687821955
267.0240135,2.83538688960716,5.09624567807217
267.6526567,2.83578979532713,5.09117008861139
268.2778892,2.8361962794496,5.08621961371639
268.9017887,2.83660959988907,5.08126519764622
